t[Ts]	C_l(t)	C_h(t)	N_l(t)	N_h(t)	E_l(t)	E_h(t)	A_LL(t)	A_HL(t)	A_HH(t)	A_L(t)	A_H(t)	A(t)
0.0	0.0	134.722	0.0	0.0	0	0	0	0	0	0	0	0
100000.02652000045	3.65769	131.064	0.000139727	0.0100203	0	0	0	0	0	0	0	0
200000.58344001003	7.05104	127.671	0.000545052	0.0197749	0	0	0	0	0	0	0	0
299999.54915999225	10.2186	124.503	0.00119756	0.0292824	0	0	0	0	0	0	0	0
399999.84087999724	13.1895	121.532	0.00208138	0.0385586	0	0	0	0	0	0	0	0
500000.1326000023	15.987	118.735	0.00318257	0.0476174	0	0	0	0	0	0	0	0
600000.4243200073	18.6294	116.092	0.00448879	0.0564712	0	0	0	0	0	0	0	0
699999.3900399896	21.1324	113.589	0.00598894	0.065131	0	0	0	0	0	0	0	0
799999.6817599945	23.5089	111.213	0.007673	0.073607	0	0	0	0	0	0	0	0
899999.9734799997	25.7699	108.952	0.00953187	0.0819081	0	0	0	0	0	0	0	0
1000000.2652000046	27.9251	106.796	0.0115572	0.0900428	0	0	0	0	0	0	0	0
1100000.5569200094	29.9829	104.739	0.0137414	0.0980186	0	0	0	0	0	0	0	0
1199999.5226399915	31.9508	102.771	0.0160773	0.105843	0	0	0	0	0	0	0	0
1299999.814359997	33.8351	100.886	0.0185584	0.113522	0	0	0	0	0	0	0	0
1400004.08408007	35.6419	99.0796	0.0211786	0.121061	0	0	0	0	0	0	0	0
1499997.7457999613	37.3764	97.3452	0.0239324	0.128468	0	0	0	0	0	0	0	0
1600004.6675200802	39.0432	95.6783	0.0268144	0.135746	0	0	0	0	0	0	0	0
1699998.3292399712	40.6468	94.0748	0.0298197	0.1429	0	0	0	0	0	0	0	0
1800005.2509600902	42.191	92.5306	0.0329436	0.149936	0	0	0	0	0	0	0	0
1899998.9126799814	43.6793	91.0423	0.0361819	0.156858	0	0	0	0	0	0	0	0
2000005.8344001002	45.115	89.6065	0.0395305	0.163669	0	0	0	0	0	0	0	0
2099999.4961199914	46.5012	88.2204	0.0429854	0.170375	0	0	0	0	0	0	0	0
2200006.41784011	47.8405	86.8811	0.046543	0.176977	0	0	0	0	0	0	0	0
2300000.0795600014	49.1354	85.5861	0.0502	0.18348	0	0	0	0	0	0	0	0
2399993.7412798926	50.3884	84.3332	0.053953	0.189887	0	0	0	0	0	0	0	0
2500000.6630000114	51.6016	83.12	0.0577991	0.196201	0	0	0	0	0	0	0	0
2599994.3247199026	52.7769	81.9446	0.0617351	0.202425	0	0	0	0	0	0	0	0
2700001.246440022	53.9163	80.8052	0.0657585	0.208561	0	0	0	0	0	0	0	0
2799994.908159912	55.0216	79.7	0.0698665	0.214613	0	0	0	0	0	0	0	0
2900001.8298800313	56.0942	78.6273	0.0740565	0.220583	0	0	0	0	0	0	0	0
2999995.4915999225	57.1358	77.5858	0.0783263	0.226474	0	0	0	0	0	0	0	0
3100002.4133200417	58.1478	76.5738	0.0826736	0.232286	0	0	0	0	0	0	0	0
3199996.0750399325	59.1314	75.5902	0.087096	0.238024	0	0	0	0	0	0	0	0
3300002.996760051	60.088	74.6336	0.0915916	0.243688	0	0	0	0	0	0	0	0
3399996.6584799425	61.0186	73.7029	0.0961584	0.249281	0	0	0	0	0	0	0	0
3500003.580200061	61.9245	72.7971	0.100794	0.254805	0	0	0	0	0	0	0	0
3599997.241919953	62.8066	71.9149	0.105498	0.260262	0	0	0	0	0	0	0	0
3700004.163640072	63.6659	71.0556	0.110267	0.265653	0	0	0	0	0	0	0	0
3799997.825359963	64.5034	70.2182	0.1151	0.27098	0	0	0	0	0	0	0	0
3900004.747080081	65.3199	69.4017	0.119995	0.276244	0	0	0	0	0	0	0	0
3999998.408799973	66.1162	68.6054	0.124952	0.281448	0	0	0	0	0	0	0	0
4100005.330520092	66.8931	67.8285	0.129967	0.286593	0	0	0	0	0	0	0	0
4199998.992239983	67.6513	67.0703	0.135041	0.291679	0	0	0	0	0	0	0	0
4300005.913960101	68.3916	66.33	0.140171	0.296709	0	0	0	0	0	0	0	0
4399999.575679993	69.1146	65.607	0.145356	0.301684	0	0	0	0	0	0	0	0
4500006.4974001115	69.8209	64.9007	0.150595	0.306605	0	0	0	0	0	0	0	0
4600000.159120003	70.5111	64.2105	0.155886	0.311474	0	0	0	0	0	0	0	0
4699993.820839893	71.1858	63.5357	0.161229	0.31629	0	0	0	0	0	0	0	0
4800000.742560013	71.8456	62.8759	0.166623	0.321057	0	0	0	0	0	0	0	0
4899994.404279904	72.4909	62.2306	0.172066	0.325774	0	0	0	0	0	0	0	0
5000001.326000023	73.1223	61.5993	0.177556	0.330444	0	0	0	0	0	0	0	0
5099994.987719914	73.7402	60.9814	0.183094	0.335066	0	0	0	0	0	0	0	0
5200001.909440033	74.345	60.3765	0.188678	0.339642	0	0	0	0	0	0	0	0
5299995.571159923	74.9372	59.7843	0.194307	0.344173	0	0	0	0	0	0	0	0
5400002.492880044	75.5172	59.2043	0.199981	0.348659	0	0	0	0	0	0	0	0
5499996.154599934	76.0854	58.6361	0.205697	0.353103	0	0	0	0	0	0	0	0
5600003.076320052	76.6422	58.0794	0.211456	0.357504	0	0	0	0	0	0	0	0
5699996.738039944	77.1878	57.5337	0.217257	0.361863	0	0	0	0	0	0	0	0
5800003.659760063	77.7227	56.9988	0.223098	0.366182	0	0	0	0	0	0	0	0
5899997.321479954	78.2472	56.4744	0.228979	0.37046	0	0	0	0	0	0	0	0
6000004.243200073	78.7616	55.96	0.2349	0.3747	0	0	0	0	0	0	0	0
6099997.904919963	79.2661	55.4554	0.240859	0.378901	0	0	0	0	0	0	0	0
6200004.826640083	79.7612	54.9604	0.246855	0.383064	0	0	0	0	0	0	0	0
6299998.488359975	80.247	54.4746	0.252889	0.387191	0	0	0	0	0	0	0	0
6400005.410080094	80.7238	53.9978	0.258959	0.391281	0	0	0	0	0	0	0	0
6499999.071799985	81.1919	53.5297	0.265064	0.395336	0	0	0	0	0	0	0	0
6600005.993520102	81.6515	53.07	0.271205	0.399355	0	0	0	0	0	0	0	0
6699999.655239994	82.1029	52.6186	0.27738	0.40334	0	0	0	0	0	0	0	0
6800006.576960113	82.5463	52.1753	0.283588	0.407292	0	0	0	0	0	0	0	0
6900000.238680004	82.9819	51.7397	0.28983	0.41121	0	0	0	0	0	0	0	0
6999993.900399895	83.4099	51.3117	0.296104	0.415096	0	0	0	0	0	0	0	0
7100000.822120015	83.8305	50.8911	0.30241	0.41895	0	0	0	0	0	0	0	0
7199994.483839906	84.2439	50.4776	0.308748	0.422772	0	0	0	0	0	0	0	0
7300001.405560025	84.6504	50.0712	0.315117	0.426563	0	0	0	0	0	0	0	0
7399995.067279916	85.05	49.6715	0.321516	0.430324	0	0	0	0	0	0	0	0
7500001.989000034	85.443	49.2785	0.327944	0.434055	0	0	0	0	0	0	0	0
7599995.650719926	85.8295	48.892	0.334403	0.437757	0	0	0	0	0	0	0	0
7700002.572440044	86.2098	48.5118	0.34089	0.44143	0	0	0	0	0	0	0	0
7799996.234159935	86.5838	48.1377	0.347406	0.445074	0	0	0	0	0	0	0	0
7900003.155880054	86.9519	47.7696	0.353949	0.448691	0	0	0	0	0	0	0	0
7999996.817599946	87.3142	47.4074	0.36052	0.452279	0	0	0	0	0	0	0	0
8100003.739320064	87.6707	47.0509	0.367119	0.455841	0	0	0	0	0	0	0	0
8199997.401039956	88.0217	46.6999	0.373743	0.459376	0	0	0	0	0	0	0	0
8300004.322760074	88.3672	46.3544	0.380395	0.462885	0	0	0	0	0	0	0	0
8399997.984479966	88.7074	46.0141	0.387072	0.466368	0	0	0	0	0	0	0	0
8500004.906200085	89.0425	45.6791	0.393774	0.469825	0	0	0	0	0	0	0	0
8599998.567919975	89.3725	45.3491	0.400502	0.473258	0	0	0	0	0	0	0	0
8700005.489640094	89.6975	45.024	0.407254	0.476666	0	0	0	0	0	0	0	0
8799999.151359987	90.0178	44.7038	0.414031	0.480049	0	0	0	0	0	0	0	0
8900006.073080106	90.3333	44.3883	0.420831	0.483408	0	0	0	0	0	0	0	0
8999999.734799996	90.6442	44.0774	0.427656	0.486744	0	0	0	0	0	0	0	0
9100006.656520113	90.9506	43.771	0.434503	0.490057	0	0	0	0	0	0	0	0
9200000.318240006	91.2526	43.469	0.441374	0.493346	0	0	0	0	0	0	0	0
9299993.979959896	91.5502	43.1713	0.448267	0.496613	0	0	0	0	0	0	0	0
9400000.901680013	91.8437	42.8779	0.455182	0.499858	0	0	0	0	0	0	0	0
9499994.563399907	92.133	42.5885	0.462119	0.503081	0	0	0	0	0	0	0	0
9600001.485120026	92.4183	42.3032	0.469078	0.506282	0	0	0	0	0	0	0	0
9699995.146839915	92.6997	42.0219	0.476059	0.509461	0	0	0	0	0	0	0	0
9800002.068560036	92.9772	41.7444	0.48306	0.51262	0	0	0	0	0	0	0	0
9899995.730279926	93.2509	41.4707	0.490082	0.515758	0	0	0	0	0	0	0	0
10000002.652000045	93.5209	41.2007	0.497125	0.518875	0	0	0	0	0	0	0	0
10099996.313719936	93.7873	40.9343	0.504188	0.521972	0	0	0	0	0	0	0	0
10200003.235440055	94.0501	40.6715	0.511271	0.525049	0	0	0	0	0	0	0	0
10299996.897159947	94.3094	40.4121	0.518373	0.528106	0	0	0	0	0	0	0	0
10400003.818880066	94.5653	40.1562	0.525495	0.531144	0	0	0	0	0	0	0	0
10499997.480599957	94.8179	39.9036	0.532636	0.534163	0	0	0	0	0	0	0	0
10600004.402320076	95.0672	39.6543	0.539796	0.537163	0	0	0	0	0	0	0	0
10699998.064039964	95.3133	39.4082	0.546975	0.540144	0	0	0	0	0	0	0	0
10800004.985760087	95.5563	39.1653	0.554172	0.543107	0	0	0	0	0	0	0	0
10899998.647479976	95.7961	38.9254	0.561388	0.546052	0	0	0	0	0	0	0	0
11000005.569200097	96.033	38.6886	0.568621	0.548978	0	0	0	0	0	0	0	0
11099999.230919987	96.2669	38.4547	0.575872	0.551887	0	0	0	0	0	0	0	0
11200006.152640104	96.4978	38.2237	0.583141	0.554779	0	0	0	0	0	0	0	0
11299999.814359996	96.7259	37.9956	0.590427	0.557653	0	0	0	0	0	0	0	0
11400006.736080116	96.9513	37.7703	0.59773	0.56051	0	0	0	0	0	0	0	0
11500000.397800008	97.1738	37.5477	0.60505	0.56335	0	0	0	0	0	0	0	0
11599994.059519898	97.3937	37.3279	0.612387	0.566173	0	0	0	0	0	0	0	0
11700000.981240015	97.6109	37.1107	0.61974	0.56898	0	0	0	0	0	0	0	0
11799994.642959908	97.8255	36.896	0.627109	0.57177	0	0	0	0	0	0	0	0
11900001.564680029	98.0376	36.684	0.634495	0.574545	0	0	0	0	0	0	0	0
11999995.226399919	98.2472	36.4744	0.641896	0.577303	0	0	0	0	0	0	0	0
12100002.148120036	98.4543	36.2673	0.649313	0.580046	0	0	0	0	0	0	0	0
12199995.809839927	98.659	36.0626	0.656746	0.582774	0	0	0	0	0	0	0	0
12300002.731560048	98.8613	35.8603	0.664194	0.585486	0	0	0	0	0	0	0	0
12399996.393279938	99.0613	35.6603	0.671657	0.588183	0	0	0	0	0	0	0	0
12500003.315000057	99.259	35.4626	0.679135	0.590864	0	0	0	0	0	0	0	0
12599996.97671995	99.4544	35.2671	0.686628	0.593531	0	0	0	0	0	0	0	0
12700003.898440065	99.6477	35.0739	0.694136	0.596184	0	0	0	0	0	0	0	0
12799997.560159957	99.8387	34.8828	0.701658	0.598822	0	0	0	0	0	0	0	0
12900004.481880076	100.028	34.6939	0.709194	0.601445	0	0	0	0	0	0	0	0
12999998.14359997	100.215	34.507	0.716745	0.604055	0	0	0	0	0	0	0	0
13100005.065320086	100.399	34.3223	0.72431	0.60665	0	0	0	0	0	0	0	0
13199998.727039978	100.582	34.1395	0.731888	0.609231	0	0	0	0	0	0	0	0
13300045.428760782	100.763	33.9588	0.73948	0.611799	0	0	0	0	0	0	0	0
13400025.830480445	100.942	33.78	0.747086	0.614353	0	0	0	0	0	0	0	0
13500006.232200107	101.118	33.6031	0.754705	0.616894	0	0	0	0	0	0	0	0
13599986.63391977	101.293	33.4281	0.762338	0.619422	0	0	0	0	0	0	0	0
13699967.035639435	101.467	33.255	0.769983	0.621936	0	0	0	0	0	0	0	0
13799947.437359098	101.638	33.0837	0.777642	0.624438	0	0	0	0	0	0	0	0
13900060.43908104	101.807	32.9143	0.785313	0.626926	0	0	0	0	0	0	0	0
14000040.840800704	101.975	32.7466	0.792997	0.629402	0	0	0	0	0	0	0	0
14100021.242520366	102.141	32.5807	0.800694	0.631865	0	0	0	0	0	0	0	0
14200001.64424003	102.305	32.4164	0.808403	0.634316	0	0	0	0	0	0	0	0
14299982.045959692	102.468	32.2539	0.816125	0.636755	0	0	0	0	0	0	0	0
14399962.447679354	102.629	32.093	0.823858	0.639181	0	0	0	0	0	0	0	0
14499942.849399017	102.788	31.9338	0.831604	0.641596	0	0	0	0	0	0	0	0
14600055.85112096	102.945	31.7762	0.839362	0.643998	0	0	0	0	0	0	0	0
14700036.252840623	103.101	31.6202	0.847131	0.646388	0	0	0	0	0	0	0	0
14800016.654560288	103.256	31.4657	0.854912	0.648767	0	0	0	0	0	0	0	0
14899997.056279948	103.409	31.3128	0.862705	0.651134	0	0	0	0	0	0	0	0
14999977.457999611	103.56	31.1614	0.870509	0.65349	0	0	0	0	0	0	0	0
15099957.859719273	103.71	31.0115	0.878325	0.655834	0	0	0	0	0	0	0	0
15199938.261438936	103.858	30.8631	0.886152	0.658168	0	0	0	0	0	0	0	0
15300051.263160883	104.005	30.7161	0.89399	0.66049	0	0	0	0	0	0	0	0
15400031.664880546	104.151	30.5706	0.901839	0.662801	0	0	0	0	0	0	0	0
15500012.066600207	104.295	30.4264	0.909699	0.665101	0	0	0	0	0	0	0	0
15599992.46831987	104.438	30.2837	0.91757	0.66739	0	0	0	0	0	0	0	0
15699972.87003953	104.579	30.1423	0.925451	0.669668	0	0	0	0	0	0	0	0
15799953.271759199	104.719	30.0023	0.933343	0.671936	0	0	0	0	0	0	0	0
15900066.27348114	104.858	29.8636	0.941246	0.674194	0	0	0	0	0	0	0	0
16000046.675200801	104.995	29.7262	0.949159	0.67644	0	0	0	0	0	0	0	0
16100027.076920465	105.132	29.59	0.957082	0.678677	0	0	0	0	0	0	0	0
16200007.478640128	105.266	29.4552	0.965016	0.680904	0	0	0	0	0	0	0	0
16299987.880359793	105.4	29.3216	0.97296	0.68312	0	0	0	0	0	0	0	0
16399968.282079455	105.532	29.1893	0.980913	0.685326	0	0	0	0	0	0	0	0
16499948.683799118	105.663	29.0581	0.988877	0.687523	0	0	0	0	0	0	0	0
16600061.685521059	105.793	28.9282	0.99685	0.689709	0	0	0	0	0	0	0	0
16700042.087240722	105.922	28.7994	1.00483	0.691886	0	0	0	0	0	0	0	0
16800022.48896039	106.05	28.6718	1.01283	0.694053	0	0	0	0	0	0	0	0
16900002.89068005	106.176	28.5454	1.02083	0.69621	0	0	0	0	0	0	0	0
16999983.292399712	106.301	28.4201	1.02884	0.698358	0	0	0	0	0	0	0	0
17099963.694119375	106.426	28.2959	1.03686	0.700497	0	0	0	0	0	0	0	0
17199944.09583904	106.549	28.1729	1.04489	0.702626	0	0	0	0	0	0	0	0
17300057.097560983	106.671	28.0509	1.05293	0.704746	0	0	0	0	0	0	0	0
17400037.499280646	106.792	27.93	1.06098	0.706857	0	0	0	0	0	0	0	0
17500017.90100031	106.911	27.8101	1.06904	0.708959	0	0	0	0	0	0	0	0
17599998.302719973	107.03	27.6913	1.07711	0.711052	0	0	0	0	0	0	0	0
17699978.704439633	107.148	27.5736	1.08518	0.713136	0	0	0	0	0	0	0	0
17799959.106159296	107.265	27.4568	1.09327	0.715211	0	0	0	0	0	0	0	0
17899939.50787896	107.38	27.3411	1.10136	0.717277	0	0	0	0	0	0	0	0
18000052.509600904	107.495	27.2263	1.10946	0.719335	0	0	0	0	0	0	0	0
18100032.911320567	107.609	27.1126	1.11758	0.721384	0	0	0	0	0	0	0	0
18200013.313040227	107.722	26.9998	1.1257	0.723424	0	0	0	0	0	0	0	0
18299993.714759894	107.834	26.8879	1.13382	0.725456	0	0	0	0	0	0	0	0
18399974.116479553	107.945	26.777	1.14196	0.72748	0	0	0	0	0	0	0	0
18499954.518199217	108.054	26.6671	1.1501	0.729495	0	0	0	0	0	0	0	0
18599934.91991888	108.164	26.558	1.15826	0.731502	0	0	0	0	0	0	0	0
18700047.92164082	108.272	26.4499	1.16642	0.733501	0	0	0	0	0	0	0	0
18800028.323360488	108.379	26.3426	1.17459	0.735491	0	0	0	0	0	0	0	0
18900008.725080147	108.485	26.2362	1.18277	0.737474	0	0	0	0	0	0	0	0
18999989.126799814	108.591	26.1308	1.19095	0.739448	0	0	0	0	0	0	0	0
19099969.528519474	108.695	26.0261	1.19914	0.741415	0	0	0	0	0	0	0	0
19199949.93023914	108.799	25.9223	1.20735	0.743374	0	0	0	0	0	0	0	0
19300062.931961082	108.902	25.8194	1.21555	0.745325	0	0	0	0	0	0	0	0
19400043.33368074	109.004	25.7173	1.22377	0.747268	0	0	0	0	0	0	0	0
19500023.73540041	109.106	25.616	1.232	0.749204	0	0	0	0	0	0	0	0
19600004.13712007	109.206	25.5155	1.24023	0.751132	0	0	0	0	0	0	0	0
19699984.538839735	109.306	25.4159	1.24847	0.753052	0	0	0	0	0	0	0	0
19799964.940559395	109.405	25.317	1.25671	0.754965	0	0	0	0	0	0	0	0
19899945.34227906	109.503	25.2189	1.26497	0.756871	0	0	0	0	0	0	0	0
20000058.344001003	109.6	25.1216	1.27323	0.758769	0	0	0	0	0	0	0	0
20100038.745720666	109.697	25.025	1.2815	0.76066	0	0	0	0	0	0	0	0
20200019.147440333	109.792	24.9292	1.28978	0.762544	0	0	0	0	0	0	0	0
20299999.549159992	109.887	24.8341	1.29806	0.76442	0	0	0	0	0	0	0	0
20399979.950879656	109.982	24.7398	1.30635	0.76629	0	0	0	0	0	0	0	0
20499960.35259932	110.075	24.6462	1.31465	0.768152	0	0	0	0	0	0	0	0
20599940.75431898	110.168	24.5533	1.32295	0.770007	0	0	0	0	0	0	0	0
20700053.756040927	110.26	24.4612	1.33126	0.771855	0	0	0	0	0	0	0	0
20800034.157760587	110.352	24.3697	1.33958	0.773696	0	0	0	0	0	0	0	0
20900014.55948025	110.443	24.2789	1.34791	0.775531	0	0	0	0	0	0	0	0
20999994.961199913	110.533	24.1888	1.35624	0.777358	0	0	0	0	0	0	0	0
21099975.362919576	110.622	24.0994	1.36458	0.779179	0	0	0	0	0	0	0	0
21199955.76463924	110.711	24.0107	1.37293	0.780993	0	0	0	0	0	0	0	0
21299936.1663589	110.799	23.9226	1.38128	0.782801	0	0	0	0	0	0	0	0
21400049.168080844	110.886	23.8352	1.38964	0.784602	0	0	0	0	0	0	0	0
21500029.56980051	110.973	23.7485	1.398	0.786396	0	0	0	0	0	0	0	0
21600009.971520174	111.059	23.6623	1.40638	0.788184	0	0	0	0	0	0	0	0
21699990.373239838	111.145	23.5768	1.41475	0.789965	0	0	0	0	0	0	0	0
21799970.774959497	111.23	23.492	1.42314	0.79174	0	0	0	0	0	0	0	0
21899951.176679157	111.314	23.4077	1.43153	0.793508	0	0	0	0	0	0	0	0
22000064.178401105	111.397	23.3241	1.43993	0.79527	0	0	0	0	0	0	0	0
22100044.580120765	111.48	23.2411	1.44833	0.797026	0	0	0	0	0	0	0	0
22200024.98184043	111.563	23.1587	1.45674	0.798776	0	0	0	0	0	0	0	0
22300005.38356009	111.645	23.0768	1.46516	0.800519	0	0	0	0	0	0	0	0
22399985.785279755	111.726	22.9956	1.47358	0.802256	0	0	0	0	0	0	0	0
22499966.186999418	111.807	22.915	1.48201	0.803988	0	0	0	0	0	0	0	0
22599946.588719077	111.887	22.8349	1.49045	0.805713	0	0	0	0	0	0	0	0
22700059.590441026	111.966	22.7554	1.49889	0.807432	0	0	0	0	0	0	0	0
22800039.99216069	112.045	22.6764	1.50733	0.809145	0	0	0	0	0	0	0	0
22900020.39388035	112.124	22.598	1.51579	0.810852	0	0	0	0	0	0	0	0
23000000.795600016	112.201	22.5202	1.52425	0.812553	0	0	0	0	0	0	0	0
23099981.19731968	112.279	22.4429	1.53271	0.814249	0	0	0	0	0	0	0	0
23199961.59903934	112.355	22.3661	1.54118	0.815938	0	0	0	0	0	0	0	0
23299942.000759	112.432	22.2899	1.54966	0.817622	0	0	0	0	0	0	0	0
23400055.002480946	112.507	22.2142	1.55814	0.8193	0	0	0	0	0	0	0	0
23500035.404200606	112.583	22.139	1.56663	0.820973	0	0	0	0	0	0	0	0
23600015.80592027	112.657	22.0643	1.57512	0.82264	0	0	0	0	0	0	0	0
23699996.207639936	112.731	21.9902	1.58362	0.824301	0	0	0	0	0	0	0	0
23799976.609359596	112.805	21.9165	1.59212	0.825956	0	0	0	0	0	0	0	0
23899957.011079263	112.878	21.8434	1.60063	0.827606	0	0	0	0	0	0	0	0
23999937.412798926	112.951	21.7707	1.60915	0.829251	0	0	0	0	0	0	0	0
24100050.414520867	113.023	21.6986	1.61767	0.83089	0	0	0	0	0	0	0	0
24200030.816240527	113.095	21.6269	1.6262	0.832524	0	0	0	0	0	0	0	0
24300011.217960194	113.166	21.5557	1.63473	0.834152	0	0	0	0	0	0	0	0
24399991.619679853	113.237	21.485	1.64326	0.835775	0	0	0	0	0	0	0	0
24499972.02139952	113.307	21.4148	1.65181	0.837393	0	0	0	0	0	0	0	0
24599952.42311918	113.377	21.345	1.66035	0.839005	0	0	0	0	0	0	0	0
24700065.42484113	113.446	21.2757	1.66891	0.840612	0	0	0	0	0	0	0	0
24800045.826560788	113.515	21.2068	1.67747	0.842214	0	0	0	0	0	0	0	0
24900026.22828045	113.583	21.1384	1.68603	0.843811	0	0	0	0	0	0	0	0
25000006.630000114	113.651	21.0705	1.6946	0.845402	0	0	0	0	0	0	0	0
25099987.031719778	113.719	21.003	1.70317	0.846989	0	0	0	0	0	0	0	0
25199967.43343944	113.786	20.9359	1.71175	0.84857	0	0	0	0	0	0	0	0
25299947.835159104	113.852	20.8693	1.72033	0.850147	0	0	0	0	0	0	0	0
25400060.836881045	113.918	20.8031	1.72892	0.851718	0	0	0	0	0	0	0	0
25500041.23860071	113.984	20.7373	1.73751	0.853284	0	0	0	0	0	0	0	0
25600021.640320376	114.05	20.6719	1.74611	0.854846	0	0	0	0	0	0	0	0
25700002.04204003	114.115	20.607	1.75472	0.856402	0	0	0	0	0	0	0	0
25799982.443759695	114.179	20.5425	1.76333	0.857954	0	0	0	0	0	0	0	0
25899962.845479358	114.243	20.4784	1.77194	0.859501	0	0	0	0	0	0	0	0
25999943.247199025	114.307	20.4147	1.78056	0.861043	0	0	0	0	0	0	0	0
26100056.248920966	114.37	20.3514	1.78918	0.86258	0	0	0	0	0	0	0	0
26200036.650640633	114.433	20.2885	1.79781	0.864112	0	0	0	0	0	0	0	0
26300017.052360293	114.496	20.226	1.80644	0.86564	0	0	0	0	0	0	0	0
26399997.454079956	114.558	20.1638	1.81508	0.867163	0	0	0	0	0	0	0	0
26499977.855799623	114.619	20.1021	1.82372	0.868681	0	0	0	0	0	0	0	0
26599958.25751928	114.681	20.0408	1.83236	0.870195	0	0	0	0	0	0	0	0
26699938.65923895	114.742	19.9798	1.84102	0.871704	0	0	0	0	0	0	0	0
26800051.66096089	114.802	19.9192	1.84967	0.873209	0	0	0	0	0	0	0	0
26900032.062680546	114.863	19.859	1.85833	0.874708	0	0	0	0	0	0	0	0
27000012.464400213	114.922	19.7992	1.867	0.876204	0	0	0	0	0	0	0	0
27099992.86611988	114.982	19.7397	1.87566	0.877695	0	0	0	0	0	0	0	0
27199973.26783954	115.041	19.6806	1.88434	0.879181	0	0	0	0	0	0	0	0
27299953.669559207	115.1	19.6219	1.89302	0.880663	0	0	0	0	0	0	0	0
27400066.671281148	115.158	19.5635	1.9017	0.882141	0	0	0	0	0	0	0	0
27500047.07300081	115.216	19.5054	1.91039	0.883614	0	0	0	0	0	0	0	0
27600027.474720474	115.274	19.4477	1.91908	0.885083	0	0	0	0	0	0	0	0
27700007.876440138	115.331	19.3904	1.92777	0.886547	0	0	0	0	0	0	0	0
27799988.278159797	115.388	19.3334	1.93647	0.888007	0	0	0	0	0	0	0	0
27899968.67987946	115.445	19.2768	1.94518	0.889463	0	0	0	0	0	0	0	0
27999949.081599124	115.501	19.2204	1.95388	0.890915	0	0	0	0	0	0	0	0
28100062.08332107	115.557	19.1645	1.9626	0.892362	0	0	0	0	0	0	0	0
28200042.48504073	115.613	19.1088	1.97131	0.893806	0	0	0	0	0	0	0	0
28300022.886760395	115.668	19.0535	1.98003	0.895245	0	0	0	0	0	0	0	0
28400003.28848006	115.723	18.9985	1.98876	0.896679	0	0	0	0	0	0	0	0
28499983.69019972	115.778	18.9438	1.99749	0.89811	0	0	0	0	0	0	0	0
28599964.091919385	115.832	18.8895	2.00622	0.899537	0	0	0	0	0	0	0	0
28699944.493639044	115.886	18.8354	2.01496	0.900959	0	0	0	0	0	0	0	0
28800057.495360985	115.94	18.7817	2.0237	0.902378	0	0	0	0	0	0	0	0
28900037.89708065	115.993	18.7283	2.03245	0.903792	0	0	0	0	0	0	0	0
29000018.298800316	116.046	18.6752	2.0412	0.905202	0	0	0	0	0	0	0	0
29099998.700519975	116.099	18.6224	2.04995	0.906609	0	0	0	0	0	0	0	0
29199979.10223964	116.152	18.5699	2.05871	0.908011	0	0	0	0	0	0	0	0
29299959.503959306	116.204	18.5178	2.06747	0.90941	0	0	0	0	0	0	0	0
